# Approximates mean and Reynolds stress values for fully-developed
# turbulent velocity profile using the DNS data of Moser, Kim &
# Mansour ("DNS of Turbulent Channel Flow up to Re_tau = 590,"
# Physics of Fluids, 11: 943-945, 1999).
y/delta, \bar{U}/utau, Ruu/utau^2, Rvv/utau^2, Rww/utau^2, Ruv/utau^2, Ruw/utau^2, Rvw/utau^2
 0.00000000E+00,  0.00000000E+00,  7.80030000E-28,  5.41790000E-29,  8.52920000E-28, -3.41100000E-32, -2.06140000E-30, -1.25210000E-31,
 3.90624994E-03,  2.28389280E+00,  8.27057390E-01,  1.98715220E-03,  2.10590670E-01, -1.28274220E-02, -8.93094110E-04, -9.74726500E-06,
 7.81250004E-03,  4.46352230E+00,  2.88787230E+00,  1.76636390E-02,  5.32771670E-01, -8.83783870E-02, -2.84202200E-03,  3.88983990E-07,
 1.17187500E-02,  6.38696340E+00,  5.05444440E+00,  5.33474960E-02,  8.12637900E-01, -2.21219940E-01, -5.12678420E-03,  1.29209460E-04,
 1.56250001E-02,  7.97387840E+00,  6.57450150E+00,  1.06822980E-01,  1.04198390E+00, -3.66015820E-01, -6.29811100E-03,  3.48574960E-04,
 1.95312505E-02,  9.23688100E+00,  7.38224970E+00,  1.73276070E-01,  1.23050190E+00, -4.92497610E-01, -5.37856560E-03,  5.64827650E-04,
 2.34375006E-02,  1.02316640E+01,  7.67716210E+00,  2.47638710E-01,  1.38435170E+00, -5.92025830E-01, -2.30096490E-03,  7.44310180E-04,
 2.73437507E-02,  1.10192530E+01,  7.66005810E+00,  3.25400980E-01,  1.50770570E+00, -6.66745420E-01,  2.05908230E-03,  8.82907300E-04,
 3.12500009E-02,  1.16499270E+01,  7.47076450E+00,  4.03051040E-01,  1.60521650E+00, -7.21839180E-01,  6.63900860E-03,  9.79024730E-04,
 3.51562493E-02,  1.21630990E+01,  7.19591430E+00,  4.77998230E-01,  1.68108540E+00, -7.62200920E-01,  1.10498120E-02,  1.01834500E-03,
 3.90624994E-02,  1.25864630E+01,  6.88599390E+00,  5.48661930E-01,  1.73949760E+00, -7.91746660E-01,  1.52127800E-02,  9.87359670E-04,
 4.29687495E-02,  1.29424080E+01,  6.56917570E+00,  6.14108990E-01,  1.78410200E+00, -8.13383590E-01,  1.88292220E-02,  9.09959230E-04,
 4.68749996E-02,  1.32461090E+01,  6.26243230E+00,  6.73866740E-01,  1.81807210E+00, -8.29264140E-01,  2.15119950E-02,  8.37732000E-04,
 5.07812497E-02,  1.35084550E+01,  5.97463980E+00,  7.27849820E-01,  1.84344250E+00, -8.40926000E-01,  2.31893940E-02,  7.93709510E-04,
 5.46874998E-02,  1.37383450E+01,  5.70897640E+00,  7.76273450E-01,  1.86209350E+00, -8.49450660E-01,  2.39711070E-02,  7.74950800E-04,
 5.85937499E-02,  1.39417630E+01,  5.46645550E+00,  8.19421660E-01,  1.87496630E+00, -8.55549730E-01,  2.41110960E-02,  7.61292880E-04,
 6.25000000E-02,  1.41238740E+01,  5.24622110E+00,  8.57643440E-01,  1.88305740E+00, -8.59760590E-01,  2.38735630E-02,  7.53892390E-04,
 6.64062501E-02,  1.42889700E+01,  5.04715930E+00,  8.91318560E-01,  1.88710070E+00, -8.62489750E-01,  2.34740440E-02,  7.67896200E-04,
 7.03125002E-02,  1.44391380E+01,  4.86746180E+00,  9.20826490E-01,  1.88768970E+00, -8.64059700E-01,  2.30637970E-02,  8.15433740E-04,
 7.42187503E-02,  1.45767900E+01,  4.70518400E+00,  9.46592970E-01,  1.88556300E+00, -8.64676690E-01,  2.26900360E-02,  8.79347670E-04,
 7.81250004E-02,  1.47041230E+01,  4.55820840E+00,  9.69007770E-01,  1.88120810E+00, -8.64463070E-01,  2.23113660E-02,  9.33128450E-04,
 8.20312505E-02,  1.48231120E+01,  4.42469880E+00,  9.88431550E-01,  1.87503110E+00, -8.63549450E-01,  2.18301750E-02,  9.66014870E-04,
 8.59375006E-02,  1.49350520E+01,  4.30326800E+00,  1.00518000E+00,  1.86738950E+00, -8.62087060E-01,  2.11055280E-02,  9.89195650E-04,
 8.98437507E-02,  1.50402500E+01,  4.19263830E+00,  1.01951280E+00,  1.85848600E+00, -8.60201160E-01,  2.00129950E-02,  1.01614330E-03,
 9.37500009E-02,  1.51402460E+01,  4.09160870E+00,  1.03177100E+00,  1.84887690E+00, -8.58003320E-01,  1.86099330E-02,  1.02212210E-03,
 9.76562493E-02,  1.52355440E+01,  3.99916450E+00,  1.04214540E+00,  1.83880630E+00, -8.55598900E-01,  1.70155310E-02,  9.86624050E-04,
 1.01562499E-01,  1.53263710E+01,  3.91449640E+00,  1.05077490E+00,  1.82836160E+00, -8.53075530E-01,  1.53447330E-02,  9.05409700E-04,
 1.05468749E-01,  1.54135100E+01,  3.83695990E+00,  1.05784710E+00,  1.81765060E+00, -8.50496940E-01,  1.37011720E-02,  7.89102930E-04,
 1.09375000E-01,  1.54977140E+01,  3.76598950E+00,  1.06355270E+00,  1.80662580E+00, -8.47906580E-01,  1.22098330E-02,  6.58943020E-04,
 1.13281250E-01,  1.55787870E+01,  3.70098070E+00,  1.06806440E+00,  1.79514290E+00, -8.45287100E-01,  1.09704070E-02,  5.29842970E-04,
 1.17187500E-01,  1.56565800E+01,  3.64126620E+00,  1.07153760E+00,  1.78311300E+00, -8.42584320E-01,  9.96747110E-03,  4.07724940E-04,
 1.21093750E-01,  1.57321880E+01,  3.58613250E+00,  1.07411500E+00,  1.77064490E+00, -8.39749370E-01,  9.00776760E-03,  2.91806160E-04,
 1.25000000E-01,  1.58060360E+01,  3.53495270E+00,  1.07592700E+00,  1.75789050E+00, -8.36771010E-01,  8.00524310E-03,  1.83638660E-04,
 1.28906250E-01,  1.58778830E+01,  3.48714990E+00,  1.07709170E+00,  1.74507430E+00, -8.33655270E-01,  7.02457320E-03,  7.48264310E-05,
 1.32812500E-01,  1.59471780E+01,  3.44218420E+00,  1.07770420E+00,  1.73250700E+00, -8.30409160E-01,  6.27553380E-03, -6.19073280E-05,
 1.36718750E-01,  1.60149690E+01,  3.39977540E+00,  1.07777010E+00,  1.72025060E+00, -8.27062210E-01,  5.84826160E-03, -2.36971200E-04,
 1.40625000E-01,  1.60821710E+01,  3.35977970E+00,  1.07727150E+00,  1.70826460E+00, -8.23647350E-01,  5.72355540E-03, -4.35077630E-04,
 1.44531251E-01,  1.61474090E+01,  3.32204940E+00,  1.07624630E+00,  1.69658730E+00, -8.20176780E-01,  5.79259340E-03, -6.04482610E-04,
 1.48437501E-01,  1.62106660E+01,  3.28634780E+00,  1.07478720E+00,  1.68519900E+00, -8.16649370E-01,  5.93953190E-03, -7.03585560E-04,
 1.52343751E-01,  1.62730000E+01,  3.25240960E+00,  1.07299840E+00,  1.67400640E+00, -8.13055590E-01,  6.07691460E-03, -7.14506850E-04,
 1.56250001E-01,  1.63340670E+01,  3.22017220E+00,  1.07085670E+00,  1.66284080E+00, -8.09386070E-01,  6.22729380E-03, -6.71291120E-04,
 1.60156249E-01,  1.63936010E+01,  3.18956620E+00,  1.06838420E+00,  1.65163170E+00, -8.05641590E-01,  6.40490040E-03, -6.06970420E-04,
 1.64062499E-01,  1.64521870E+01,  3.16040780E+00,  1.06573900E+00,  1.64051680E+00, -8.01840840E-01,  6.55106710E-03, -5.25250440E-04,
 1.67968749E-01,  1.65098110E+01,  3.13259680E+00,  1.06292650E+00,  1.62956450E+00, -7.98004400E-01,  6.59018260E-03, -4.17967650E-04,
 1.71874998E-01,  1.65660350E+01,  3.10610380E+00,  1.05984790E+00,  1.61875610E+00, -7.94152920E-01,  6.45948610E-03, -2.73766540E-04,
 1.75781246E-01,  1.66211890E+01,  3.08086370E+00,  1.05658810E+00,  1.60797760E+00, -7.90306950E-01,  6.22269420E-03, -1.05488920E-04,
 1.79687495E-01,  1.66756470E+01,  3.05680420E+00,  1.05326220E+00,  1.59714080E+00, -7.86487040E-01,  5.97275790E-03,  7.06261240E-05,
 1.83593743E-01,  1.67290090E+01,  3.03387370E+00,  1.04986010E+00,  1.58634310E+00, -7.82713620E-01,  5.74427990E-03,  2.56263660E-04,
 1.87500009E-01,  1.67810880E+01,  3.01195640E+00,  1.04636480E+00,  1.57573040E+00, -7.78989870E-01,  5.52837650E-03,  4.58714170E-04,
 1.91406257E-01,  1.68322920E+01,  2.99082440E+00,  1.04278930E+00,  1.56546670E+00, -7.75289670E-01,  5.26354850E-03,  6.88223790E-04,
 1.95312505E-01,  1.68828740E+01,  2.97029440E+00,  1.03917440E+00,  1.55558700E+00, -7.71577380E-01,  4.93997290E-03,  9.34469880E-04,
 1.99218754E-01,  1.69328500E+01,  2.95024660E+00,  1.03558440E+00,  1.54599080E+00, -7.67812680E-01,  4.60753180E-03,  1.16617490E-03,
 2.03125002E-01,  1.69821080E+01,  2.93062380E+00,  1.03203510E+00,  1.53663520E+00, -7.63989300E-01,  4.30642550E-03,  1.36943090E-03,
 2.07031251E-01,  1.70305000E+01,  2.91142380E+00,  1.02850430E+00,  1.52752060E+00, -7.60126670E-01,  4.06274250E-03,  1.54565520E-03,
 2.10937499E-01,  1.70782860E+01,  2.89274770E+00,  1.02495490E+00,  1.51861180E+00, -7.56248940E-01,  3.85790250E-03,  1.71309000E-03,
 2.14843747E-01,  1.71258500E+01,  2.87472150E+00,  1.02134790E+00,  1.50985730E+00, -7.52381520E-01,  3.66039430E-03,  1.89600310E-03,
 2.18749996E-01,  1.71728770E+01,  2.85726600E+00,  1.01768560E+00,  1.50122850E+00, -7.48542780E-01,  3.51474140E-03,  2.09896950E-03,
 2.22656244E-01,  1.72188680E+01,  2.84021910E+00,  1.01398240E+00,  1.49270290E+00, -7.44745400E-01,  3.49195570E-03,  2.31553860E-03,
 2.26562493E-01,  1.72640180E+01,  2.82345050E+00,  1.01022230E+00,  1.48423850E+00, -7.40985690E-01,  3.62685620E-03,  2.52386430E-03,
 2.30468758E-01,  1.73087030E+01,  2.80685570E+00,  1.00638230E+00,  1.47578590E+00, -7.37254110E-01,  3.93487140E-03,  2.69985530E-03,
 2.34375006E-01,  1.73528900E+01,  2.79040760E+00,  1.00246180E+00,  1.46729460E+00, -7.33541830E-01,  4.39790840E-03,  2.83857720E-03,
 2.38281255E-01,  1.73964300E+01,  2.77409530E+00,  9.98471040E-01,  1.45871310E+00, -7.29841060E-01,  4.98094320E-03,  2.94425280E-03,
 2.42187503E-01,  1.74393240E+01,  2.75784920E+00,  9.94435330E-01,  1.44998630E+00, -7.26148720E-01,  5.61886080E-03,  3.03530910E-03,
 2.46093752E-01,  1.74816500E+01,  2.74159870E+00,  9.90382370E-01,  1.44107950E+00, -7.22463230E-01,  6.24016690E-03,  3.13262410E-03,
 2.50000000E-01,  1.75236360E+01,  2.72540100E+00,  9.86319320E-01,  1.43209980E+00, -7.18782160E-01,  6.80072540E-03,  3.24055530E-03,
 2.53906248E-01,  1.75655100E+01,  2.70935450E+00,  9.82245460E-01,  1.42319900E+00, -7.15102840E-01,  7.27161080E-03,  3.35551730E-03,
 2.57812497E-01,  1.76070270E+01,  2.69348280E+00,  9.78162290E-01,  1.41443780E+00, -7.11423400E-01,  7.65861780E-03,  3.46285580E-03,
 2.61718745E-01,  1.76477490E+01,  2.67777310E+00,  9.74072370E-01,  1.40583470E+00, -7.07741720E-01,  7.98388010E-03,  3.54377910E-03,
 2.65624994E-01,  1.76876610E+01,  2.66220310E+00,  9.69978730E-01,  1.39742340E+00, -7.04049040E-01,  8.26677980E-03,  3.59204260E-03,
 2.69531242E-01,  1.77270000E+01,  2.64674520E+00,  9.65884460E-01,  1.38924340E+00, -7.00332610E-01,  8.52424440E-03,  3.60927730E-03,
 2.73437507E-01,  1.77659790E+01,  2.63137750E+00,  9.61789630E-01,  1.38126750E+00, -6.96582640E-01,  8.76095430E-03,  3.59943970E-03,
 2.77343756E-01,  1.78047780E+01,  2.61608500E+00,  9.57691990E-01,  1.37341210E+00, -6.92792230E-01,  8.97131830E-03,  3.56842780E-03,
 2.81250004E-01,  1.78434030E+01,  2.60090100E+00,  9.53598660E-01,  1.36558730E+00, -6.88966960E-01,  9.15534300E-03,  3.52422360E-03,
 2.85156253E-01,  1.78816370E+01,  2.58592070E+00,  9.49528780E-01,  1.35769790E+00, -6.85128160E-01,  9.32055880E-03,  3.47738210E-03,
 2.89062501E-01,  1.79193510E+01,  2.57117530E+00,  9.45491390E-01,  1.34968470E+00, -6.81291020E-01,  9.46848180E-03,  3.43742970E-03,
 2.92968749E-01,  1.79566200E+01,  2.55655610E+00,  9.41472930E-01,  1.34156360E+00, -6.77455940E-01,  9.58716880E-03,  3.41141650E-03,
 2.96874998E-01,  1.79935330E+01,  2.54195710E+00,  9.37461260E-01,  1.33336800E+00, -6.73622450E-01,  9.66569630E-03,  3.40499130E-03,
 3.00781246E-01,  1.80301450E+01,  2.52734980E+00,  9.33460090E-01,  1.32516250E+00, -6.69793920E-01,  9.70336590E-03,  3.41963710E-03,
 3.04687495E-01,  1.80665090E+01,  2.51272590E+00,  9.29475740E-01,  1.31701700E+00, -6.65974010E-01,  9.70268270E-03,  3.45579550E-03,
 3.08593743E-01,  1.81027120E+01,  2.49809440E+00,  9.25505540E-01,  1.30898600E+00, -6.62161510E-01,  9.67214950E-03,  3.51351650E-03,
 3.12500009E-01,  1.81388540E+01,  2.48347220E+00,  9.21542740E-01,  1.30111520E+00, -6.58353150E-01,  9.62374710E-03,  3.59256170E-03,
 3.16406257E-01,  1.81747940E+01,  2.46887380E+00,  9.17583980E-01,  1.29341220E+00, -6.54550130E-01,  9.58342360E-03,  3.69052210E-03,
 3.20312505E-01,  1.82101720E+01,  2.45431180E+00,  9.13629100E-01,  1.28584930E+00, -6.50757890E-01,  9.59010990E-03,  3.80293670E-03,
 3.24218754E-01,  1.82448550E+01,  2.43978910E+00,  9.09680000E-01,  1.27839360E+00, -6.46981850E-01,  9.65479760E-03,  3.92491580E-03,
 3.28125002E-01,  1.82791850E+01,  2.42528970E+00,  9.05742500E-01,  1.27100480E+00, -6.43227110E-01,  9.73055360E-03,  4.05086080E-03,
 3.32031251E-01,  1.83134820E+01,  2.41079910E+00,  9.01821270E-01,  1.26364630E+00, -6.39496460E-01,  9.76510510E-03,  4.17599440E-03,
 3.35937499E-01,  1.83476410E+01,  2.39632150E+00,  8.97912390E-01,  1.25630430E+00, -6.35781070E-01,  9.71489960E-03,  4.30018700E-03,
 3.39843747E-01,  1.83814360E+01,  2.38186820E+00,  8.94009690E-01,  1.24897260E+00, -6.32068780E-01,  9.54098860E-03,  4.42482830E-03,
 3.43749996E-01,  1.84148620E+01,  2.36746500E+00,  8.90113940E-01,  1.24164980E+00, -6.28353640E-01,  9.23432250E-03,  4.55189330E-03,
 3.47656244E-01,  1.84480960E+01,  2.35314920E+00,  8.86231610E-01,  1.23433820E+00, -6.24634740E-01,  8.81027860E-03,  4.68382610E-03,
 3.51562493E-01,  1.84812240E+01,  2.33892900E+00,  8.82365780E-01,  1.22703370E+00, -6.20911110E-01,  8.27794320E-03,  4.82139410E-03,
 3.55468758E-01,  1.85141220E+01,  2.32474940E+00,  8.78511910E-01,  1.21971780E+00, -6.17181240E-01,  7.63135210E-03,  4.96173560E-03,
 3.59375006E-01,  1.85466660E+01,  2.31054750E+00,  8.74665760E-01,  1.21236910E+00, -6.13445070E-01,  6.86691620E-03,  5.10098390E-03,
 3.63281255E-01,  1.85789060E+01,  2.29626310E+00,  8.70831990E-01,  1.20495610E+00, -6.09712910E-01,  6.01100180E-03,  5.23156440E-03,
 3.67187503E-01,  1.86109710E+01,  2.28183830E+00,  8.67018690E-01,  1.19744450E+00, -6.05999140E-01,  5.10296510E-03,  5.34439890E-03,
 3.71093752E-01,  1.86429400E+01,  2.26723540E+00,  8.63223160E-01,  1.18983620E+00, -6.02306820E-01,  4.19383340E-03,  5.43289350E-03,
 3.75000000E-01,  1.86748370E+01,  2.25244380E+00,  8.59428750E-01,  1.18217980E+00, -5.98624430E-01,  3.34954110E-03,  5.49364760E-03,
 3.78906248E-01,  1.87066560E+01,  2.23746720E+00,  8.55619500E-01,  1.17452290E+00, -5.94941230E-01,  2.63061130E-03,  5.52468860E-03,
 3.82812497E-01,  1.87382960E+01,  2.22236780E+00,  8.51786580E-01,  1.16689440E+00, -5.91254270E-01,  2.06905590E-03,  5.52948350E-03,
 3.86718745E-01,  1.87696290E+01,  2.20722250E+00,  8.47922990E-01,  1.15931810E+00, -5.87562860E-01,  1.68746440E-03,  5.51318960E-03,
 3.90624994E-01,  1.88006220E+01,  2.19207500E+00,  8.44017930E-01,  1.15181850E+00, -5.83867500E-01,  1.47464300E-03,  5.48494390E-03,
 3.94531242E-01,  1.88313310E+01,  2.17693640E+00,  8.40056810E-01,  1.14442060E+00, -5.80170010E-01,  1.38563510E-03,  5.45786050E-03,
 3.98437507E-01,  1.88617990E+01,  2.16182340E+00,  8.36028780E-01,  1.13714100E+00, -5.76473680E-01,  1.37876870E-03,  5.44457040E-03,
 4.02343756E-01,  1.88920010E+01,  2.14678260E+00,  8.31938060E-01,  1.12996230E+00, -5.72787510E-01,  1.43076930E-03,  5.45516590E-03,
 4.06250004E-01,  1.89218950E+01,  2.13186450E+00,  8.27792630E-01,  1.12285970E+00, -5.69121400E-01,  1.52344370E-03,  5.49873590E-03,
 4.10156253E-01,  1.89515000E+01,  2.11705180E+00,  8.23602540E-01,  1.11582390E+00, -5.65474940E-01,  1.65308940E-03,  5.57540720E-03,
 4.14062501E-01,  1.89808930E+01,  2.10225950E+00,  8.19379970E-01,  1.10886150E+00, -5.61837380E-01,  1.83050970E-03,  5.67633520E-03,
 4.17968749E-01,  1.90101180E+01,  2.08741680E+00,  8.15136180E-01,  1.10197950E+00, -5.58198670E-01,  2.06907380E-03,  5.79179710E-03,
 4.21874998E-01,  1.90390550E+01,  2.07253040E+00,  8.10877930E-01,  1.09518390E+00, -5.54553980E-01,  2.39081620E-03,  5.90988660E-03,
 4.25781246E-01,  1.90675440E+01,  2.05762840E+00,  8.06610650E-01,  1.08848010E+00, -5.50899950E-01,  2.81965570E-03,  6.01824300E-03,
 4.29687495E-01,  1.90955530E+01,  2.04272060E+00,  8.02335090E-01,  1.08186570E+00, -5.47233310E-01,  3.35935170E-03,  6.11034870E-03,
 4.33593743E-01,  1.91232220E+01,  2.02779370E+00,  7.98046140E-01,  1.07532790E+00, -5.43550930E-01,  3.98798150E-03,  6.18713060E-03,
 4.37500009E-01,  1.91506820E+01,  2.01283200E+00,  7.93738860E-01,  1.06885110E+00, -5.39850680E-01,  4.68099590E-03,  6.25038780E-03,
 4.41406257E-01,  1.91779610E+01,  1.99781370E+00,  7.89412110E-01,  1.06240540E+00, -5.36137210E-01,  5.40732300E-03,  6.30456450E-03,
 4.45312505E-01,  1.92050380E+01,  1.98271450E+00,  7.85066340E-01,  1.05595500E+00, -5.32417980E-01,  6.13325290E-03,  6.35519040E-03,
 4.49218754E-01,  1.92318960E+01,  1.96753470E+00,  7.80705330E-01,  1.04947760E+00, -5.28698860E-01,  6.83710830E-03,  6.40540710E-03,
 4.53125002E-01,  1.92585150E+01,  1.95232600E+00,  7.76339780E-01,  1.04297990E+00, -5.24982450E-01,  7.52236090E-03,  6.45336030E-03,
 4.57031251E-01,  1.92848780E+01,  1.93714310E+00,  7.71980580E-01,  1.03647100E+00, -5.21270520E-01,  8.19524530E-03,  6.49682940E-03,
 4.60937499E-01,  1.93109930E+01,  1.92199380E+00,  7.67628540E-01,  1.02994460E+00, -5.17559090E-01,  8.85626070E-03,  6.53742500E-03,
 4.64843747E-01,  1.93368930E+01,  1.90685000E+00,  7.63276790E-01,  1.02338260E+00, -5.13839860E-01,  9.50153130E-03,  6.57968000E-03,
 4.68749996E-01,  1.93626010E+01,  1.89168910E+00,  7.58919020E-01,  1.01677140E+00, -5.10106800E-01,  1.01274540E-02,  6.62731820E-03,
 4.72656244E-01,  1.93881070E+01,  1.87651850E+00,  7.54552350E-01,  1.01011880E+00, -5.06365050E-01,  1.07321720E-02,  6.68004690E-03,
 4.76562493E-01,  1.94133920E+01,  1.86135380E+00,  7.50174900E-01,  1.00343870E+00, -5.02622850E-01,  1.13143580E-02,  6.73640770E-03,
 4.80468758E-01,  1.94384520E+01,  1.84621170E+00,  7.45787200E-01,  9.96745170E-01, -4.98885470E-01,  1.18755220E-02,  6.79297920E-03,
 4.84375006E-01,  1.94633030E+01,  1.83110970E+00,  7.41393930E-01,  9.90052350E-01, -4.95153010E-01,  1.24220730E-02,  6.84295280E-03,
 4.88281255E-01,  1.94879650E+01,  1.81606580E+00,  7.37000030E-01,  9.83373680E-01, -4.91424790E-01,  1.29600360E-02,  6.87950770E-03,
 4.92187503E-01,  1.95124350E+01,  1.80109580E+00,  7.32607980E-01,  9.76710410E-01, -4.87695690E-01,  1.34828290E-02,  6.90052300E-03,
 4.96093752E-01,  1.95366980E+01,  1.78621390E+00,  7.28218410E-01,  9.70054560E-01, -4.83957270E-01,  1.39743600E-02,  6.90742390E-03,
 5.00000000E-01,  1.95607420E+01,  1.77143300E+00,  7.23831610E-01,  9.63397120E-01, -4.80202090E-01,  1.44180490E-02,  6.90212720E-03,
 5.03906248E-01,  1.95845820E+01,  1.75675730E+00,  7.19446500E-01,  9.56724580E-01, -4.76428540E-01,  1.47959840E-02,  6.88870780E-03,
 5.07812497E-01,  1.96082420E+01,  1.74218830E+00,  7.15061490E-01,  9.50021970E-01, -4.72636940E-01,  1.50898380E-02,  6.87194720E-03,
 5.11718745E-01,  1.96317280E+01,  1.72772340E+00,  7.10675440E-01,  9.43284140E-01, -4.68829110E-01,  1.52898920E-02,  6.85395150E-03,
 5.15624994E-01,  1.96550090E+01,  1.71334990E+00,  7.06288220E-01,  9.36529090E-01, -4.65010450E-01,  1.54067490E-02,  6.83050620E-03,
 5.19531242E-01,  1.96780500E+01,  1.69905380E+00,  7.01899970E-01,  9.29777970E-01, -4.61186860E-01,  1.54538300E-02,  6.79654880E-03,
 5.23437507E-01,  1.97008920E+01,  1.68482430E+00,  6.97515270E-01,  9.23044890E-01, -4.57364040E-01,  1.54409130E-02,  6.74902340E-03,
 5.27343756E-01,  1.97236590E+01,  1.67065410E+00,  6.93143920E-01,  9.16335700E-01, -4.53547460E-01,  1.53734770E-02,  6.68723690E-03,
 5.31250004E-01,  1.97464650E+01,  1.65653500E+00,  6.88795430E-01,  9.09656750E-01, -4.49741980E-01,  1.52577470E-02,  6.61096880E-03,
 5.35156253E-01,  1.97692170E+01,  1.64244680E+00,  6.84472690E-01,  9.03025270E-01, -4.45945890E-01,  1.51109820E-02,  6.52376210E-03,
 5.39062501E-01,  1.97916940E+01,  1.62836170E+00,  6.80174440E-01,  8.96465300E-01, -4.42153370E-01,  1.49573520E-02,  6.43151720E-03,
 5.42968749E-01,  1.98137280E+01,  1.61425750E+00,  6.75899220E-01,  8.89995330E-01, -4.38358840E-01,  1.48176770E-02,  6.33999410E-03,
 5.46874998E-01,  1.98354540E+01,  1.60014040E+00,  6.71644730E-01,  8.83602870E-01, -4.34558400E-01,  1.46938740E-02,  6.25398740E-03,
 5.50781246E-01,  1.98571110E+01,  1.58602700E+00,  6.67408420E-01,  8.77264890E-01, -4.30748710E-01,  1.45814270E-02,  6.17796370E-03,
 5.54687495E-01,  1.98788520E+01,  1.57194180E+00,  6.63189530E-01,  8.70959470E-01, -4.26928620E-01,  1.44727550E-02,  6.11639460E-03,
 5.58593743E-01,  1.99005720E+01,  1.55793410E+00,  6.58992750E-01,  8.64668000E-01, -4.23103420E-01,  1.43511150E-02,  6.07376810E-03,
